flux,flux_err,centroid_col,centroid_row,cadenceno,quality
109435.81,11.583365,308.6335271991674,210.53556516550012,568,0
109453.695,11.583814,308.63346228025097,210.53512191951106,569,0
109491.93,11.585011,308.6339694645731,210.53438199765293,570,0
109528.69,11.586587,308.63390771998803,210.53383792832315,571,0
109555.59,11.588199,308.6344533833012,210.53333201430587,572,0
109571.75,11.588542,308.6344303519922,210.5327789772669,573,0
109617.22,11.589708,308.6343618467627,210.5325517410853,574,0
109657.24,11.590631,308.63438233297455,210.53245987345727,575,0
109687.43,11.5915365,308.6345258741619,210.53223763640588,576,0
109727.03,11.592715,308.63480577201165,210.53178905519093,577,8192
109752.9,11.593275,308.6344815563936,210.53180704745947,578,0
109804.71,11.594772,308.6344972453937,210.53197860843574,579,0
109842.195,11.595646,308.6346526598465,210.5320792836079,580,0
109887.695,11.59706,308.63445876582983,210.53193186069763,581,0
109933.29,11.598054,308.6347073331174,210.53176347169102,582,0
109964.07,11.599024,308.63474277859825,210.53189838960893,583,0
110043.945,11.6010685,308.63432864178907,210.53203214158938,584,0
110077.48,11.602075,308.6344792226908,210.5315121100873,585,0
110103.375,11.603675,308.6343733866369,210.5314688395288,586,0
110162.66,11.604462,308.63483565528014,210.5310129027514,587,0
110208.03,11.605561,308.6346922397268,210.53105562439336,588,0
110231.914,11.606179,308.634070761391,210.5313607207124,589,0
110269.74,11.607222,308.63383322473805,210.53091156654594,590,0
110308.46,11.608143,308.6339550972759,210.53071748780567,591,0
110396.02,11.610471,308.63385816111185,210.53065146349707,592,0
110419.15,11.611192,308.6338843479606,210.53022244018018,593,0
110472.3,11.612581,308.6341985499104,210.5304776901081,594,0
110538.42,11.614335,308.6342848497761,210.53042869603175,595,0
110579.8,11.6155405,308.63446104007875,210.53030828508915,596,0
110634.06,11.617009,308.6340954347137,210.53023408304827,597,0
110667.92,11.6177845,308.6343153817562,210.53079088479018,598,0
110695.45,11.618779,308.6341704871061,210.5306917286893,599,0
110763.44,11.620657,308.6339850676581,210.53078794360096,600,0
110817.086,11.621664,308.6344338444609,210.5311921004468,601,0
110860.32,11.622834,308.63440482367537,210.531617603895,602,0
110911.54,11.624401,308.63441492879815,210.5319507207567,603,0
110945.625,11.6253195,308.6341368995906,210.5319359378785,604,0
110986.016,11.626398,308.6343306663952,210.5318371903907,605,0
111030.17,11.62751,308.63442109628653,210.53202004336237,606,0
111068.055,11.628958,308.6345979016349,210.53183169550434,607,0
111126.28,11.630393,308.6344155429143,210.5321783135638,608,0
111150.36,11.630821,308.6344541795018,210.531943185807,609,0
111282.48,11.63846,308.6346593345696,210.53275743827803,610,128
111218.914,11.632765,308.6345070812141,210.53196966540895,611,0
111244.21,11.633469,308.6342890652702,210.531738996873,612,0
111308.68,11.635072,308.6346404420876,210.53200774419477,613,0
111354.73,11.637435,308.63467355969067,210.53195493572414,614,0
111358.78,11.636614,308.63468259029935,210.53223941504635,615,0
111392.43,11.638764,308.6346019811732,210.53224205745616,616,0
111424.984,11.638781,308.6346298689349,210.5323937976191,617,0
111449.75,11.639911,308.63478081126004,210.53214198823,618,0
111470.37,11.641233,308.6345513019348,210.532456898754,619,0
111481.22,11.640569,308.63469802497826,210.53209765232666,620,0
111525.06,11.64181,308.6346526855335,210.53274956002392,621,0
111554.95,11.644173,308.63411677349814,210.53252991194992,622,0
111614.945,11.645447,308.63443292718466,210.53259973423383,623,0
111634.59,11.646306,308.63437119217093,210.5328892582143,624,0
111629.67,11.646018,308.6343950998333,210.53236665084287,625,0
111679.555,11.647381,308.6341040878643,210.53260791303495,626,0
111702.43,11.647961,308.6342309261778,210.53287030335235,627,0
111689.39,11.64773,308.63443232909566,210.53228700438373,628,0
111714.59,11.648989,308.63448174315386,210.53309057656026,629,0
111751.24,11.649024,308.63445449021157,210.53289759773713,630,0
111782.67,11.650049,308.63440678284195,210.5328287372131,631,0
111766.29,11.64965,308.63453215996026,210.532521899772,632,0
111830.1,11.65142,308.6351261090956,210.53272492415428,633,0
111838.25,11.651578,308.634761007998,210.53253092007319,634,0
111882.84,11.652653,308.6347132172743,210.53268671840326,635,0
111896.73,11.65349,308.6347999790072,210.53279225024457,636,0
111916.484,11.653657,308.6346998320848,210.53274538975944,637,0
111923.39,11.65378,308.6346511294713,210.5324462615472,638,0
111916.54,11.653547,308.6342868620071,210.53195062912917,639,0
111945.17,11.654507,308.6344977165422,210.53226440388437,640,0
111967.39,11.655295,308.6338842738663,210.53262310987972,641,0
111988.76,11.656105,308.63434923283927,210.53255289676292,642,0
112011.75,11.656051,308.63430021373057,210.53276732956797,643,0
112035.375,11.657121,308.6344609933906,210.532644776268,644,0
112041.2,11.6573,308.6342224982941,210.53239576422916,645,0
112052.65,11.657787,308.6344831357264,210.53209077276836,646,128
112062.68,11.658148,308.63447489537543,210.53211075812726,647,0
112075.73,11.658626,308.6342840811611,210.53222452376474,648,0
112085.62,11.658501,308.6342050070942,210.53207755995538,649,0
112115.05,11.659248,308.6344304309935,210.53209020901625,650,0
112128.46,11.659315,308.6345031110296,210.53203287412464,651,0
112129.72,11.659579,308.6346900273288,210.5319171981788,652,0
112146.91,11.660291,308.6344042275847,210.53257734418563,653,0
112173.53,11.660686,308.6344030836674,210.53222664275677,654,0
112166.52,11.660667,308.6344315641539,210.53202031943297,655,0
112165.125,11.660795,308.634167659618,210.53227110589813,656,128
112186.49,11.661137,308.63424576278834,210.53214083429964,657,8192
112188.07,11.661225,308.6342525121564,210.53197631507513,658,0
112175.19,11.660894,308.6339365412553,210.5319897758713,659,0
112210.8,11.661811,308.6340873739912,210.53213981130452,660,0
112227.72,11.662296,308.63401628915517,210.5321024581508,661,0
112228.766,11.6621275,308.63389844609384,210.5319832185073,662,0
112238.91,11.66239,308.6339161312226,210.5319323344526,663,0
112258.125,11.663159,308.6342843134875,210.53194266979563,664,0
112240.555,11.662556,308.6343206498323,210.53192034150146,665,0
112277.336,11.663427,308.63423881802885,210.53188350755025,666,0
112241.92,11.662593,308.63400943743096,210.53139460255562,667,0
112254.25,11.662882,308.634172917503,210.53155168440344,668,0
112241.77,11.662493,308.6342023797097,210.53132032961665,669,0
112282.94,11.66351,308.6341746197794,210.5310539620334,670,0
112272.016,11.663175,308.6337662714946,210.53072792094193,671,0
112249.586,11.66276,308.63369394171275,210.53041878564835,672,0
112270.3,11.663251,308.63352057661416,210.53011776088755,673,0
112264.06,11.663043,308.63351842981893,210.53031164751772,674,0
112278.305,11.663399,308.63356402763714,210.53012292326866,675,0
112280.53,11.663566,308.63383592828717,210.52985556310617,676,0
112284.7,11.6635895,308.63339080508206,210.5302617100055,677,0
112286.805,11.663636,308.6337577782386,210.53026443980366,678,0
112276.48,11.663358,308.6332254357947,210.53070407155843,679,0
112280.47,11.663587,308.6338290637894,210.53083652822522,680,0
112285.875,11.663596,308.63395425375865,210.53012849800336,681,0
112272.836,11.663234,308.63393278023096,210.53041674845798,682,0
112280.336,11.663324,308.63374030552836,210.53085206480077,683,0
112267.21,11.663138,308.6335814305085,210.53054856810303,684,0
112265.32,11.663073,308.6337574970193,210.53071203968472,685,0
112256.414,11.662917,308.63405029564535,210.53102179756084,686,0
112259.27,11.662756,308.6339227440721,210.53101647078225,687,0
112262.734,11.6628895,308.6338635121868,210.53103617120794,688,0
112270.55,11.663159,308.63401768702903,210.53114064066781,689,0
112254.31,11.662771,308.6333840895424,210.53105286265972,690,0
112251.01,11.662564,308.63383153599455,210.53124663643575,691,0
112215.01,11.66172,308.63408743874066,210.53052863156776,692,0
112220.52,11.661928,308.63396597477015,210.5304495533853,693,0
112229.336,11.662102,308.63404510093466,210.53081500270093,694,0
112221.57,11.6617365,308.6336856570969,210.53064405914924,695,0
112200.11,11.661131,308.6336577180453,210.53076084885026,696,0
112203.52,11.661307,308.6336681245509,210.53076683541752,697,8192
112196.29,11.661161,308.6334595691276,210.53121140078684,698,0
112204.59,11.661263,308.63353457127755,210.53075692249155,699,0
112188.56,11.660814,308.6336055852814,210.53094314575085,700,0
112188.15,11.660534,308.6338774850309,210.53061067026042,701,0
112193.15,11.660622,308.6340209518438,210.52987121648576,702,0
112179.91,11.660641,308.63411607502695,210.53033924458535,704,0
112176.57,11.65984,308.6339413459396,210.5300995549636,705,0
112166.48,11.660212,308.63419358336495,210.53027893971984,706,0
112122.48,11.657588,308.6339521746309,210.5297461851061,707,0
112132.4,11.658395,308.63390269259685,210.5300162246297,708,0
112127.29,11.6577835,308.63399454489604,210.5299456134814,709,0
112100.96,11.657433,308.6342062947207,210.5296972832909,710,0
112107.664,11.657432,308.6339932731378,210.52967207522192,711,0
112074.734,11.656608,308.6339446039459,210.52965129064094,712,0
112070.52,11.656147,308.63424147027575,210.52939828903772,713,0
112047.05,11.656171,308.6342586469851,210.52928632552647,714,0
112061.1,11.655975,308.63420142340823,210.5291646660956,715,0
112051.06,11.655591,308.6341983280755,210.52887998132792,716,0
112037.97,11.6552305,308.63456608588587,210.5285370710421,717,0
112013.016,11.654688,308.63451524347215,210.52893170077334,718,0
112013.79,11.654823,308.6346029360661,210.52891415498684,719,0
111980.42,11.653713,308.6342187113449,210.5286723224986,720,0
111976.64,11.653431,308.6339035146185,210.5285150393218,721,0
111956.46,11.653268,308.6343412156787,210.5285658500005,722,0
111933.61,11.65236,308.63454120766306,210.52841397047092,723,0
111913.66,11.651865,308.6348745379172,210.52862760064644,724,0
111902.2,11.652184,308.63429539765104,210.52827637446154,725,0
111893.24,11.651192,308.6342979448707,210.52813189700737,726,0
111870.055,11.650564,308.63428270127093,210.52832324374918,727,0
111825.33,11.64948,308.63438907234877,210.52802572124025,728,0
111841.36,11.649948,308.6344730933932,210.5284884230464,729,0
111815.94,11.649035,308.63433303530445,210.52817125456073,730,0
111736.9,11.647122,308.63424571888163,210.52761165091852,731,0
111713.04,11.646425,308.6341864573637,210.52727205736005,732,0
111700.85,11.646177,308.6343673595714,210.52722470475865,733,0
111685.71,11.645704,308.63426077850227,210.5273205829105,734,0
111661.875,11.644837,308.634091019108,210.52768547335637,735,0
111611.07,11.643984,308.63405074767604,210.52702694360934,736,0
111598.76,11.643439,308.6342700641943,210.527107493461,737,0
111546.85,11.64186,308.63437835338965,210.52681457612718,738,0
111531.836,11.641405,308.63466016460234,210.52692986123637,739,0
111514.15,11.640969,308.63455242108256,210.52693756878418,740,0
111488.72,11.640426,308.6347135312869,210.52692942442994,741,0
111446.71,11.639322,308.63444745582495,210.52710375865246,742,0
111404.47,11.638222,308.6345434122518,210.52658314110843,743,0
111374.93,11.637225,308.6341935449279,210.52674557358026,744,0
111355.38,11.636573,308.6343147752719,210.52660941143077,745,0
111328.27,11.636258,308.6346783324903,210.5266262342352,746,128
111292.484,11.634996,308.634259531784,210.52642552676338,747,0
111250.414,11.63392,308.63440388715986,210.5266175800048,748,0
111236.83,11.633488,308.63453549411645,210.5270842636284,749,0
111199.5,11.632579,308.6338416868971,210.526806473546,750,0
111160.39,11.631617,308.6340196795628,210.5264818038564,751,0
111116.2,11.63053,308.63402114340164,210.52658624827689,752,0
111104.82,11.629018,308.6340557195575,210.52613016471918,753,0
111076.36,11.628322,308.63456311082433,210.52588609884535,754,0
111034.65,11.62707,308.63426996049145,210.52575611493563,755,0
110990.3,11.625828,308.6339511553894,210.52544594445826,756,0
110974.21,11.625592,308.6338067380027,210.52502137342896,757,0
110948.09,11.624704,308.6335233668663,210.52502391430966,758,0
110908.58,11.623719,308.6339204252845,210.52501702930758,759,0
110882.016,11.623151,308.6338898467036,210.52485137174767,760,0
110838.32,11.622153,308.6338017311075,210.52487320200171,761,0
110809.7,11.621204,308.634114448752,210.5247341014829,762,0
110783.81,11.620299,308.63372478000423,210.52519143509937,763,0
110750.02,11.619518,308.63383436717845,210.52533052357035,764,0
110717.92,11.618679,308.6337711172374,210.5249966787255,765,0
110707.72,11.618488,308.6339919185737,210.52498518961423,766,0
110661.85,11.617056,308.63414300222604,210.5250939777865,767,0
110637.2,11.616523,308.6342786087968,210.52528975749638,768,0
110609.72,11.615678,308.63440946704486,210.5255560869231,769,0
110565.27,11.614613,308.6345070562019,210.5253641807759,770,0
110512.266,11.611754,308.63407348223683,210.5255260016917,771,0
110517.766,11.612013,308.63450232438413,210.5252271408623,772,0
110477.484,11.610803,308.6343895328635,210.52534167891642,773,0
110432.43,11.609685,308.63436630935536,210.52537609430428,774,0
110402.45,11.608854,308.63455138281716,210.52514183237903,775,0
110376.234,11.607986,308.6342645503575,210.52524515890536,776,0
110316.86,11.606488,308.6343047331017,210.52536459939296,777,0
110286.32,11.605785,308.634338983795,210.52491819566208,778,0
110282.11,11.605637,308.63436658651887,210.5249755830838,779,0
110207.61,11.603607,308.6344861046701,210.52498182429872,780,0
110206.234,11.603751,308.6341419604645,210.52453023997515,781,0
110156.64,11.602498,308.6341316453665,210.5248656487477,782,0
110127.83,11.60128,308.6344093503966,210.52491422077554,783,0
110112.336,11.600845,308.634033481539,210.52500051505461,784,0
110089.01,11.600396,308.63408336497497,210.52443822445375,785,0
110043.26,11.598996,308.6346177093967,210.52426975716295,786,0
110008.766,11.598056,308.6340266649428,210.52472379886524,787,0
109953.65,11.596966,308.6346813089369,210.52451469229717,788,0
109921.71,11.5957,308.634229337025,210.52454239959243,789,0
109928.31,11.598534,308.6345196922414,210.52405823146,790,192
109894.3,11.595018,308.6347900933701,210.52462511694478,791,0
109831.695,11.593237,308.6341666343166,210.5239980517154,792,0
109808.305,11.592729,308.6340961840336,210.52387200576388,793,0
109786.4,11.592077,308.6338088444685,210.52402313149418,794,0
109751.1,11.591086,308.63446406416426,210.52403318546737,795,8192
109714.05,11.590138,308.63453682726487,210.5237023653392,796,0
109672.85,11.589052,308.63445252827125,210.52377949334402,797,0
109607.91,11.587382,308.6344328542588,210.52380080115293,798,0
109623.44,11.587685,308.6341241462473,210.5236514626598,799,0
109592.17,11.586899,308.6343446163557,210.52350307849457,800,0
109592.96,11.586553,308.63433197090404,210.52380455481074,801,0
109536.93,11.585312,308.6341276177004,210.52324649539392,802,0
109520.33,11.584821,308.6340890426788,210.5235339198766,803,0
109507.91,11.584542,308.63442653592557,210.52355654841952,804,0
109458.875,11.583119,308.6342462258719,210.52321817265704,805,0
109402.516,11.581755,308.6345097739072,210.52326299702497,806,0
109424.08,11.582431,308.6343046753057,210.52314864970054,807,0
109366.72,11.58061,308.6344632432884,210.52328323608788,808,0
109314.875,11.579527,308.63458107768116,210.5229262803592,809,0
109286.56,11.578652,308.6344378594201,210.52302237751346,810,0
109245.586,11.577369,308.6343362879006,210.52296750025118,811,0
109239.48,11.5774975,308.6340259628305,210.5227959668133,812,0
109207.49,11.576474,308.634344671856,210.52307030650476,813,0
109166.336,11.575229,308.63451958599535,210.52234262494068,814,0
109129.63,11.574267,308.63432481174016,210.52259774615453,815,0
109120.99,11.57397,308.6346335941864,210.52257987268038,816,0
109074.53,11.572929,308.6344830580115,210.52195947425034,817,0
109026.26,11.571643,308.6344628284786,210.52251838581066,818,0
109011.836,11.571025,308.63454712844754,210.52227717912834,819,0
108987.29,11.570286,308.63421842342945,210.52310092353804,820,0
108959.49,11.569922,308.63456495096284,210.52280510034907,821,0
108927.25,11.56888,308.6348048301375,210.5230673429417,822,0
108913.84,11.568392,308.6344229934254,210.52284628292955,823,0
108899.79,11.5678215,308.63447817561973,210.52229460299583,824,0
108878.84,11.567381,308.6345933748742,210.52264945982282,825,0
108842.945,11.566405,308.6345170916513,210.52231625720998,826,0
108835.12,11.5662155,308.63466481054786,210.52210926348414,827,0
108794.66,11.5651865,308.634926631084,210.52258731593227,828,0
108789.54,11.564842,308.63464673568126,210.52209461259272,829,0
108744.1,11.563731,308.6344450631796,210.5222412308013,830,0
108731.21,11.563335,308.63478076615877,210.52175399422458,831,0
108745.36,11.563702,308.6349814497517,210.52203595626673,832,0
108740.95,11.563666,308.63471970786975,210.5221570201386,833,0
108700.28,11.562475,308.6346448279228,210.52128242551947,834,0
108679.6,11.561694,308.6344656821309,210.52169628045496,835,0
108674.42,11.561733,308.63444029198615,210.5214336951916,836,0
108655.055,11.561402,308.6341795261562,210.52077319754272,837,0
108670.74,11.561719,308.63410524296444,210.5206395023079,838,0
108657.92,11.561296,308.63404426311496,210.520372893493,839,0
108684.98,11.562551,308.6339091501154,210.52010596251264,840,0
108659.0,11.561339,308.6343316810423,210.52043963179463,841,0
108663.66,11.561396,308.6338067874319,210.5202192614603,842,0
108647.805,11.559989,308.6337314894972,210.51986723973513,843,0
108654.62,11.560313,308.6337057852816,210.5199563604763,844,0
108634.9,11.559856,308.6339378997766,210.5198331817361,845,0
108643.1,11.5599985,308.63411779090217,210.51975776997605,846,0
108645.59,11.559979,308.6338941205389,210.51976757714806,847,0
108652.74,11.561185,308.6338164880943,210.52024508686864,849,0
108625.63,11.560508,308.6336775399791,210.52049437072648,850,0
108672.055,11.561727,308.6343348959371,210.5208106188969,851,0
108672.266,11.561765,308.6346034723995,210.52082871174977,852,0
108664.74,11.561537,308.6340791494573,210.5209602845877,853,0
108672.82,11.561797,308.6338690570161,210.52061692166444,854,0
108711.14,11.563242,308.63385877622954,210.52088574407802,855,0
108690.88,11.562369,308.63418114035125,210.52045755247303,856,0
108716.055,11.56302,308.6342311972559,210.51989564540798,857,0
108727.42,11.563242,308.63389307747804,210.51985576567262,858,0
108736.81,11.563706,308.63413908193394,210.52014054286002,859,0
108759.19,11.564342,308.63399000244306,210.51991206934494,860,0
108776.5,11.56371,308.63413613018116,210.51943853956348,861,0
108841.29,11.565454,308.63403129157564,210.51936991222706,862,0
108799.555,11.564251,308.6344935648666,210.51947751668368,863,0
108851.086,11.566664,308.6339001950701,210.51921552700583,864,0
108890.6,11.56779,308.63405278929247,210.51936463234279,865,0
108880.05,11.567901,308.6339788427664,210.51929432236602,866,0
108910.516,11.568047,308.63388149003003,210.5192124200157,867,0
108941.63,11.569233,308.6334037853215,210.51957563764793,868,0
108952.67,11.569372,308.6335997636221,210.51947113562676,869,8192
108991.47,11.570489,308.63393973565644,210.51910197462595,870,0
109003.2,11.570909,308.63424805284535,210.51956161269808,871,0
109038.09,11.571894,308.63380258434086,210.51915305939525,872,0
109090.46,11.573321,308.63371066470046,210.51903833291055,873,8192
109114.234,11.573858,308.633597855659,210.51946312384985,874,0
109165.98,11.575349,308.6336706455578,210.51925428515352,875,0
109170.336,11.575272,308.6340036043695,210.51925701950105,876,0
109198.17,11.576123,308.6336700728342,210.5191447193985,877,0
109241.37,11.57714,308.63408872389266,210.5191881737473,878,0
109279.25,11.578252,308.6338004228916,210.51908173147865,879,0
109330.99,11.579802,308.63361468046395,210.51886506929003,880,0
109362.9,11.580607,308.63378183604476,210.51879032231852,881,0
109393.734,11.581384,308.6337763376986,210.51908376916938,882,0
109435.25,11.582367,308.6337676228593,210.51886746721198,883,0
109480.9,11.5837345,308.6336826006365,210.51884679467486,884,0
